Profile Data:           	      	                        	   	                   	   	          	         	             	      	     	           	         	       	     	        
Time                    	P     	T                       	Hu 	Ws                 	Wd 	Long.     	Lat.     	Alt          	Geopot	Dewp.	Virt. Temp 	Elevation	Azimuth	Range	D       
[sec]                   	[mB]  	[°C]                    	[%]	[m/s]              	[°]	[°]       	[°]      	[m]          	[m]   	[°C] 	[°C]       	[°]      	[°]    	[m]  	[kg/m3] 
0                       	1009.1	33.0                    	60 	0.8                	310	-90.199400	38.627000	141          	141   	24.2 	36.5       	38.6     	180    	0    	0.068287
2                       	1008.7	33.0                    	57 	0.8                	310	-90.203208	38.628155	145          	145   	23.3 	36.3       	0.7      	111    	356  	0.064603
4                       	1008.3	33.0                    	54 	0.7                	311	-90.207016	38.629311	149          	149   	22.3 	36.1       	0.6      	111    	711  	0.060919
6                       	1007.8	33.0                    	50 	0.7                	312	-90.210824	38.630466	152          	152   	21.2 	35.9       	0.6      	111    	1067 	0.057235
8                       	1007.4	33.0                    	47 	0.6                	313	-90.214633	38.631621	156          	156   	20.2 	35.8       	0.6      	111    	1422 	0.053539
10                      	1007.0	33.1                    	45 	0.6                	314	-90.218441	38.632776	160          	160   	19.5 	35.7       	0.6      	111    	1778 	0.051065
12                      	1006.6	33.2                    	45 	0.5                	315	-90.222249	38.633932	164          	164   	19.6 	35.8       	0.6      	111    	2133 	0.051086
14                      	1006.3	33.2                    	45 	0.5                	316	-90.226057	38.635087	167          	167   	19.6 	35.9       	0.6      	111    	2489 	0.051106
16                      	1005.9	33.3                    	45 	0.4                	319	-90.227396	38.635492	171          	171   	19.7 	35.9       	0.7      	111    	2614 	0.051127
18                      	1005.6	33.3                    	45 	0.4                	322	-90.227402	38.635492	173          	173   	19.8 	36.0       	0.7      	111    	2615 	0.051148
20                      	1005.6	33.4                    	45 	0.4                	327	-90.227409	38.635492	173          	172   	19.8 	36.1       	0.7      	111    	2615 	0.051188
22                      	1005.6	33.3                    	45 	0.3                	336	-90.227416	38.635492	173          	172   	19.9 	36.0       	0.7      	111    	2616 	0.051602
24                      	1005.6	33.2                    	46 	0.3                	354	-90.227423	38.635492	173          	172   	19.9 	35.9       	0.7      	111    	2616 	0.052016
26                      	1005.6	33.1                    	46 	0.2                	028	-90.227429	38.635492	173          	172   	20.0 	35.8       	0.7      	111    	2617 	0.052430
28                      	1005.6	33.1                    	46 	0.2                	067	-90.227436	38.635492	173          	172   	20.0 	35.8       	0.7      	111    	2617 	0.052844
30                      	1005.6	33.0                    	47 	0.1                	088	-90.227443	38.635492	172          	172   	20.1 	35.7       	0.7      	111    	2618 	0.053259
32                      	1005.6	32.9                    	47 	0.1                	089	-90.227449	38.635492	172          	172   	20.1 	35.6       	0.7      	111    	2618 	0.053673
34                      	1005.6	32.9                    	47 	0.1                	089	-90.227456	38.635492	172          	172   	20.2 	35.6       	0.7      	111    	2619 	0.053994
36                      	1005.6	33.0                    	48 	0.1                	089	-90.227463	38.635492	172          	172   	20.3 	35.7       	0.7      	111    	2619 	0.054098
38                      	1005.6	33.1                    	48 	0.2                	090	-90.227470	38.635492	172          	172   	20.4 	35.8       	0.7      	111    	2620 	0.054202
40                      	1005.6	33.1                    	48 	0.2                	090	-90.227476	38.635492	172          	172   	20.6 	35.9       	0.7      	111    	2621 	0.054306
42                      	1005.6	33.2                    	48 	0.2                	090	-90.227483	38.635492	172          	172   	20.7 	36.0       	0.7      	111    	2621 	0.054410
44                      	1005.6	33.3                    	48 	0.2                	090	-90.227490	38.635492	172          	172   	20.8 	36.2       	0.7      	111    	2622 	0.054514
46                      	1005.6	33.4                    	48 	0.2                	091	-90.227491	38.635492	172          	172   	20.9 	36.3       	0.7      	111    	2622 	0.054618
48                      	1005.6	33.3                    	48 	0.2                	091	-90.227493	38.635492	172          	172   	20.8 	36.2       	0.7      	111    	2622 	0.054637
50                      	1005.6	33.2                    	48 	0.2                	091	-90.227494	38.635493	172          	172   	20.7 	36.0       	0.7      	111    	2622 	0.054589
52                      	1005.6	33.0                    	48 	0.2                	091	-90.227495	38.635493	172          	172   	20.5 	35.8       	0.7      	111    	2622 	0.054541
54                      	1005.6	32.9                    	48 	0.2                	092	-90.227497	38.635494	173          	172   	20.3 	35.6       	0.7      	111    	2622 	0.054493
56                      	1005.6	32.7                    	48 	0.2                	092	-90.227498	38.635494	173          	172   	20.2 	35.4       	0.7      	111    	2622 	0.054445
58                      	1005.6	32.5                    	48 	0.2                	092	-90.227499	38.635494	173          	172   	20.0 	35.2       	0.7      	111    	2623 	0.054397
60                      	1005.6	32.4                    	48 	0.2                	092	-90.227501	38.635495	173          	173   	19.8 	35.1       	0.7      	111    	2623 	0.054348
62                      	1005.6	32.3                    	48 	0.2                	093	-90.227502	38.635495	173          	173   	19.9 	35.0       	0.7      	111    	2623 	0.054622
64                      	1005.6	32.3                    	48 	0.2                	094	-90.227504	38.635495	173          	173   	19.9 	35.0       	0.7      	111    	2623 	0.054957
66                      	1005.6	32.3                    	48 	0.2                	095	-90.227505	38.635496	173          	173   	20.0 	35.0       	0.7      	111    	2623 	0.055291
68                      	1005.6	32.2                    	49 	0.2                	097	-90.227506	38.635496	173          	173   	20.1 	34.9       	0.7      	111    	2623 	0.055626
70                      	1005.6	32.2                    	49 	0.2                	098	-90.227508	38.635496	173          	173   	20.1 	34.9       	0.7      	111    	2623 	0.055961
72                      	1005.6	32.2                    	49 	0.1                	099	-90.227509	38.635497	173          	173   	20.2 	34.9       	0.7      	111    	2623 	0.056296
74                      	1005.6	32.1                    	50 	0.1                	101	-90.227510	38.635497	173          	173   	20.2 	34.9       	0.7      	111    	2624 	0.056571
76                      	1005.6	32.2                    	49 	0.1                	103	-90.227512	38.635497	173          	173   	20.2 	34.9       	0.7      	111    	2624 	0.056385
78                      	1005.6	32.2                    	49 	0.1                	105	-90.227513	38.635498	173          	173   	20.2 	34.9       	0.7      	111    	2624 	0.056199
80                      	1005.5	32.2                    	49 	0.1                	107	-90.227515	38.635497	173          	173   	20.2 	34.9       	0.7      	111    	2624 	0.056012
82                      	1005.5	32.3                    	49 	0.1                	109	-90.227518	38.635497	173          	173   	20.1 	35.0       	0.7      	111    	2624 	0.055826
84                      	1005.5	32.3                    	49 	0.1                	112	-90.227520	38.635496	174          	173   	20.1 	35.0       	0.7      	111    	2624 	0.055640
86                      	1005.5	32.3                    	49 	0.1                	115	-90.227522	38.635496	174          	174   	20.1 	35.0       	0.7      	111    	2624 	0.055454
88                      	1005.5	32.3                    	49 	0.1                	118	-90.227524	38.635495	174          	174   	20.1 	35.0       	0.7      	111    	2625 	0.055327
90                      	1005.4	32.3                    	48 	0.1                	121	-90.227526	38.635495	174          	174   	20.0 	34.9       	0.7      	111    	2625 	0.055314
92                      	1005.4	32.2                    	48 	0.1                	118	-90.227529	38.635495	174          	174   	19.9 	34.9       	0.7      	111    	2625 	0.055302
94                      	1005.4	32.2                    	48 	0.1                	114	-90.227531	38.635494	174          	174   	19.9 	34.8       	0.7      	111    	2625 	0.055289
96                      	1005.4	32.1                    	48 	0.1                	110	-90.227533	38.635494	175          	175   	19.8 	34.8       	0.7      	111    	2625 	0.055277
98                      	1005.4	32.1                    	48 	0.1                	105	-90.227535	38.635493	175          	175   	19.8 	34.7       	0.7      	111    	2625 	0.055264
100                     	1005.3	32.0                    	48 	0.1                	100	-90.227537	38.635493	175          	175   	19.7 	34.7       	0.7      	111    	2626 	0.055252
102                     	1005.3	31.9                    	48 	0.1                	095	-90.227540	38.635492	175          	175   	19.7 	34.5       	0.7      	111    	2626 	0.055310
104                     	1005.1	31.8                    	48 	0.1                	089	-90.227542	38.635492	175          	175   	19.6 	34.4       	0.7      	111    	2626 	0.055414
106                     	1005.0	31.7                    	49 	0.1                	083	-90.227544	38.635491	176          	175   	19.5 	34.3       	0.7      	111    	2626 	0.055518
108                     	1004.8	31.6                    	49 	0.1                	077	-90.227538	38.635456	180          	180   	19.4 	34.2       	0.8      	111    	2624 	0.055622
110                     	1004.2	31.5                    	49 	0.1                	071	-90.227528	38.635406	185          	185   	19.3 	34.0       	1.0      	111    	2622 	0.055726
112                     	1003.5	31.3                    	49 	0.3                	009	-90.227518	38.635356	191          	191   	19.3 	33.9       	1.1      	111    	2619 	0.055831
114                     	1002.9	31.2                    	49 	0.6                	003	-90.227509	38.635306	197          	197   	19.2 	33.8       	1.2      	111    	2616 	0.055935
116                     	1002.2	31.1                    	50 	0.9                	001	-90.227499	38.635255	203          	203   	19.3 	33.7       	1.3      	111    	2614 	0.056717
118                     	1001.6	31.0                    	50 	1.1                	359	-90.227489	38.635205	209          	208   	19.4 	33.5       	1.5      	110    	2611 	0.057642
120                     	1001.0	30.8                    	51 	1.4                	359	-90.227480	38.635155	214          	214   	19.5 	33.4       	1.6      	110    	2608 	0.058567
122                     	1000.3	30.7                    	52 	1.7                	358	-90.227470	38.635105	220          	220   	19.7 	33.3       	1.7      	110    	2606 	0.059494
124                     	999.7 	30.5                    	53 	1.9                	358	-90.227460	38.635055	226          	226   	19.8 	33.2       	1.9      	110    	2603 	0.060421
126                     	999.0 	30.4                    	53 	2.2                	358	-90.227450	38.635004	232          	231   	19.9 	33.1       	2.0      	110    	2601 	0.061350
128                     	998.4 	30.3                    	54 	2.4                	358	-90.227441	38.634954	237          	237   	20.0 	33.0       	2.1      	110    	2598 	0.062202
130                     	997.7 	30.2                    	55 	2.7                	357	-90.227431	38.634904	243          	243   	20.0 	32.9       	2.2      	110    	2596 	0.062865
132                     	997.1 	30.1                    	55 	2.8                	355	-90.227421	38.634854	249          	249   	20.1 	32.8       	2.4      	110    	2593 	0.063529
134                     	996.5 	30.0                    	56 	3.0                	352	-90.227411	38.634804	255          	254   	20.2 	32.7       	2.5      	110    	2591 	0.064193
136                     	995.8 	29.9                    	56 	3.1                	350	-90.227402	38.634753	260          	260   	20.2 	32.6       	2.6      	109    	2589 	0.064858
138                     	995.2 	29.8                    	57 	3.3                	348	-90.227392	38.634703	266          	266   	20.3 	32.5       	2.8      	109    	2586 	0.065523
140                     	994.2 	29.7                    	58 	3.4                	346	-90.227364	38.634651	274          	273   	20.4 	32.4       	2.9      	109    	2582 	0.066188
142                     	993.2 	29.6                    	58 	3.6                	345	-90.227303	38.634597	283          	283   	20.4 	32.3       	3.2      	109    	2576 	0.066667
144                     	992.2 	29.5                    	58 	3.7                	343	-90.227242	38.634542	293          	293   	20.4 	32.3       	3.4      	109    	2570 	0.067002
146                     	991.1 	29.5                    	58 	3.8                	342	-90.227181	38.634488	303          	303   	20.5 	32.3       	3.6      	109    	2563 	0.067338
148                     	990.0 	29.4                    	59 	4.0                	340	-90.227120	38.634433	313          	313   	20.5 	32.2       	3.8      	109    	2557 	0.067673
150                     	988.9 	29.4                    	59 	4.1                	339	-90.227059	38.634379	323          	322   	20.5 	32.2       	4.1      	109    	2551 	0.068009
152                     	987.8 	29.3                    	59 	4.1                	336	-90.226999	38.634324	333          	332   	20.5 	32.1       	4.3      	109    	2544 	0.068344
154                     	986.7 	29.2                    	60 	4.2                	333	-90.226938	38.634270	342          	342   	20.6 	32.1       	4.5      	109    	2538 	0.068680
156                     	985.7 	29.2                    	60 	4.2                	330	-90.226877	38.634215	352          	352   	20.5 	32.0       	4.8      	109    	2532 	0.068793
158                     	984.6 	29.1                    	60 	4.2                	326	-90.226816	38.634160	362          	362   	20.4 	31.8       	5.0      	108    	2526 	0.068867
160                     	983.5 	29.0                    	60 	4.2                	323	-90.226755	38.634106	372          	372   	20.3 	31.7       	5.2      	108    	2520 	0.068940
162                     	982.4 	28.9                    	60 	4.2                	320	-90.226694	38.634051	382          	381   	20.3 	31.6       	5.5      	108    	2514 	0.069013
164                     	981.3 	28.8                    	60 	4.2                	317	-90.226634	38.633997	391          	391   	20.2 	31.5       	5.7      	108    	2508 	0.069087
166                     	980.2 	28.7                    	60 	4.2                	314	-90.226573	38.633942	401          	401   	20.1 	31.4       	6.0      	108    	2502 	0.069160
168                     	979.1 	28.6                    	60 	4.2                	311	-90.226508	38.633900	412          	412   	20.0 	31.3       	6.2      	108    	2497 	0.069271
170                     	977.6 	28.4                    	60 	4.2                	308	-90.226440	38.633872	425          	425   	20.0 	31.2       	6.5      	108    	2491 	0.069622
172                     	976.2 	28.3                    	61 	4.1                	307	-90.226371	38.633844	438          	438   	20.0 	31.1       	6.9      	108    	2486 	0.069972
174                     	974.8 	28.2                    	61 	4.0                	306	-90.226303	38.633815	451          	451   	19.9 	30.9       	7.2      	108    	2481 	0.070323
176                     	973.4 	28.1                    	61 	3.9                	305	-90.226234	38.633787	464          	464   	19.9 	30.8       	7.5      	108    	2477 	0.070674
178                     	971.9 	28.0                    	61 	3.8                	304	-90.226166	38.633759	477          	477   	19.9 	30.7       	7.8      	108    	2472 	0.071025
180                     	970.5 	27.9                    	62 	3.7                	303	-90.226097	38.633730	491          	490   	19.8 	30.6       	8.1      	108    	2467 	0.071377
182                     	969.1 	27.7                    	62 	3.6                	302	-90.226029	38.633702	504          	503   	19.8 	30.4       	8.5      	108    	2462 	0.071841
184                     	967.6 	27.6                    	63 	3.5                	301	-90.225960	38.633674	517          	516   	19.8 	30.3       	8.8      	108    	2458 	0.072465
186                     	966.2 	27.4                    	63 	3.4                	300	-90.225891	38.633645	530          	529   	19.8 	30.2       	9.1      	108    	2453 	0.073089
188                     	964.8 	27.3                    	64 	3.4                	298	-90.225823	38.633617	543          	542   	19.8 	30.0       	9.4      	108    	2449 	0.073715
190                     	963.4 	27.1                    	64 	3.3                	297	-90.225754	38.633588	556          	556   	19.8 	29.9       	9.8      	108    	2444 	0.074340
192                     	962.0 	27.0                    	65 	3.3                	297	-90.225686	38.633560	569          	569   	19.8 	29.7       	10.1     	108    	2440 	0.074967
194                     	960.5 	26.9                    	65 	3.2                	296	-90.225617	38.633532	582          	582   	19.7 	29.6       	10.4     	108    	2436 	0.075594
196                     	959.1 	26.7                    	66 	3.2                	296	-90.225549	38.633503	595          	595   	19.7 	29.4       	10.8     	108    	2432 	0.076125
198                     	957.7 	26.6                    	66 	3.2                	296	-90.225482	38.633479	609          	608   	19.7 	29.3       	11.1     	108    	2428 	0.076613
200                     	956.1 	26.4                    	66 	3.2                	296	-90.225422	38.633465	624          	623   	19.6 	29.1       	11.5     	108    	2426 	0.077101
202                     	954.5 	26.3                    	67 	3.2                	295	-90.225362	38.633451	638          	638   	19.6 	29.0       	11.8     	108    	2423 	0.077589
204                     	952.9 	26.1                    	67 	3.2                	295	-90.225301	38.633438	653          	653   	19.5 	28.8       	12.2     	108    	2421 	0.078079
206                     	951.3 	26.0                    	67 	3.2                	295	-90.225241	38.633424	668          	667   	19.5 	28.7       	12.6     	108    	2419 	0.078568
208                     	949.7 	25.8                    	68 	3.2                	295	-90.225181	38.633411	683          	682   	19.4 	28.5       	12.9     	108    	2417 	0.079059
210                     	948.1 	25.7                    	68 	3.1                	294	-90.225120	38.633397	698          	697   	19.4 	28.4       	13.3     	108    	2415 	0.079628
212                     	946.5 	25.5                    	69 	3.1                	293	-90.225060	38.633383	712          	712   	19.3 	28.2       	13.7     	108    	2413 	0.080201
214                     	944.9 	25.3                    	69 	3.0                	292	-90.224999	38.633370	727          	727   	19.3 	28.0       	14.1     	108    	2411 	0.080774
